Time (fs)	Ex (arb. u.)	Ey (arb. u.)
0.103811539222	-0.163646169408	-0.250626630097
0.105485918887	-0.154710719922	-0.243394724575
0.107160298552	-0.14297755343	-0.230412631606
0.108834678217	-0.128976820405	-0.211883070984
0.110509057881	-0.113237156989	-0.188136102532
0.112183437546	-0.0962637520977	-0.159634058046
0.113857817211	-0.0785195385844	-0.126973940646
0.115532196876	-0.0604105211936	-0.0908862384882
0.117206576541	-0.0422760631835	-0.0522290803558
0.118880956206	-0.0243846961914	-0.0119767335807
0.120555335871	-0.00693570003687	0.0287983769713
0.122229715535	0.00993366754916	0.0689506599606
0.1239040952	0.0261358087752	0.107293489593
0.125578474865	0.0416162127247	0.142638110992
0.12725285453	0.0563339738695	0.173838377097
0.128927234195	0.0702410297599	0.199839758996
0.13060161386	0.0832619811206	0.219730457091
0.132275993525	0.0952764726669	0.232791879895
0.13395037319	0.106106082336	0.23854530767
0.135624752854	0.115507474343	0.236791277696
0.137299132519	0.123173213476	0.227638170581
0.138973512184	0.128741124006	0.211516686671
0.140647891849	0.131812430942	0.189177406632
0.142322271514	0.131978182416	0.161669437869
0.143996651179	0.128852671029	0.130299240356
0.145671030844	0.122111809554	0.0965700554676
0.147345410509	0.111533739065	0.0621038545406
0.149019790173	0.0970384224745	0.0285492790133
0.150694169838	0.0787226659663	-0.00251946112642
0.152368549503	0.056886966119	-0.0297064646836
0.154042929168	0.0320508362004	-0.0518935607117
0.155717308833	0.00495383316939	-0.0683275378281
0.157391688498	-0.0234596266362	-0.0786875060798
0.159066068163	-0.0520724528055	-0.0831254104445
0.160740447827	-0.0796435489208	-0.0822740631396
0.162414827492	-0.104871046592	-0.0772190280749
0.164089207157	-0.126466812725	-0.0694331798208
0.165763586822	-0.143237706634	-0.0606756180803
0.167437966487	-0.15416809939	-0.0528596429087
0.169112346152	-0.158497577756	-0.0478974443699
0.170786725817	-0.155787622005	-0.0475317722825
0.172461105482	-0.145971418317	-0.0531668694599
0.174135485146	-0.129381847787	-0.0657121447073
0.175809864811	-0.106754044812	-0.085452250135
0.177484244476	-0.0792006523924	-0.111956303783
0.179158624141	-0.0481598961717	-0.144036944514
0.180833003806	-0.015318698139	-0.179766801003
0.182507383471	0.0174849166667	-0.216555978601
0.184181763136	0.0483740750159	-0.251289585134
0.185856142801	0.0755525348716	-0.280519470127
0.187530522465	0.0974230927988	-0.300699628857
0.18920490213	0.112696386258	-0.308450525269
0.190879281795	0.120481984106	-0.30083429789
0.19255366146	0.12035473328	-0.275620756665
0.194228041125	0.112390982194	-0.23152349451
0.19590242079	0.0971714112036	-0.168386451034
0.197576800455	0.0757496060112	-0.087303873548
0.199251180119	0.0495880220991	0.00933931541196
0.200925559784	0.0204654068206	0.117914478878
0.202599939449	-0.00963812373344	0.233685214554
0.204274319114	-0.0386704848926	0.351027510372
0.205948698779	-0.0646425540481	0.46372301036
0.207623078444	-0.085759283353	0.565308603616
0.209297458109	-0.1005379478	0.649460936741
0.210971837774	-0.107905456253	0.710391292243
0.212646217438	-0.107268214051	0.743224837263
0.214320597103	-0.098550042022	0.744338659952
0.215994976768	-0.0821959629539	0.711635262049
0.217669356433	-0.0591420796025	0.644732110038
0.219343736098	-0.0307541026167	0.545053178562
0.221018115763	0.00126082948597	0.41581475863
0.222692495428	0.0349627080358	0.261904686747
0.224366875093	0.0683000745358	0.089661082101
0.226041254757	0.0992361709982	-0.0934368354669
0.227715634422	0.125871655381	-0.279147683521
0.229390014087	0.146556243507	-0.458894126482
0.231064393752	0.159982657643	-0.624211090819
0.232738773417	0.165257675358	-0.767189632513
0.234413153082	0.161946760133	-0.880890735517
0.236087532747	0.150090585436	-0.959705576839
0.237761912411	0.13019360312	-0.9996424702
0.239436292076	0.103186530041	-0.998525501762
0.241110671741	0.070366125397	-0.956095440108
0.242785051406	0.0333168208463	-0.874009446627
0.244459431071	-0.00618041109014	-0.755742034961
0.246133810736	-0.0462461344611	-0.606395256413
0.247808190401	-0.085001617648	-0.432430897032
0.249482570066	-0.120663557901	-0.241341303551
0.25115694973	-0.151629461229	-0.0412781311003
0.252831329395	-0.176549650837	0.159340266802
0.25450570906	-0.194382917054	0.352221913322
0.256180088725	-0.204433946195	0.529574867137
0.25785446839	-0.206371798036	0.684443639265
0.259528848055	-0.200229772713	0.810993449254
0.26120322772	-0.186387961092	0.90473093242
0.262877607385	-0.165540565461	0.962653816525
0.264551987049	-0.138650682042	0.98332612126
0.266226366714	-0.106895640058	0.966879363343
0.267900746379	-0.0716061939174	0.914943867092
0.269575126044	-0.0342028763546	0.830517415085
0.271249505709	0.00386733866282	0.717780999309
0.272923885374	0.0411912170575	0.581873269556
0.274598265039	0.0764438582685	0.428636388436
0.276272644704	0.108435762623	0.264346399791
0.277947024368	0.136150970058	0.0954409460418
0.279621404033	0.158775414603	-0.0717436926859
0.281295783698	0.17571516628	-0.231215618519
0.282970163363	0.186604714351	-0.377541505395
0.284644543028	0.191305863664	-0.50602505244
0.286318922693	0.189898155969	-0.612844911977
0.287993302358	0.18266198408	-0.695149438217
0.289667682022	0.170055738078	-0.751107654591
0.291342061687	0.15268841391	-0.779917720037
0.293016441352	0.131289133997	-0.781775819587
0.294690821017	0.106674987339	-0.757809763586
0.296365200682	0.0797185043591	-0.709982623684
0.298039580347	0.0513159507435	-0.640972451074
0.299713960012	0.0223574652154	-0.554034518467
0.301388339677	-0.00630011196218	-0.452852621133
0.303062719341	-0.0338570613625	-0.341385794033
0.304737099006	-0.0595907901094	-0.223716390253
0.306411478671	-0.0828717394687	-0.103904864284
0.308085858336	-0.103175087478	0.0141441413152
0.309760238001	-0.120088297054	0.126800649123
0.311434617666	-0.133314695178	0.230810277109
0.313108997331	-0.142673378574	0.323375288271
0.314783376996	-0.148095824441	0.402214682257
0.31645775666	-0.14961964184	0.465603076776
0.318132136325	-0.147379932716	0.512388872609
0.31980651599	-0.141598744828	0.541992845112
0.321480895655	-0.132573096302	0.554388845527
0.32315527532	-0.120662037126	0.550068721118
0.324829654985	-0.106273189933	0.529993872995
0.32650403465	-0.0898491829759	0.49553606787
0.328178414314	-0.0718543533826	0.448410211513
0.329852793979	-0.0527620586854	0.39060178715
0.331527173644	-0.0330428893416	0.324291572967
0.333201553309	-0.0131540245295	0.251780092326
0.334875932974	0.00647008115503	0.17541403194
0.336550312639	0.0254255497492	0.0975166007583
0.338224692304	0.0433453979446	0.0203235091651
0.339899071969	0.059904303573	-0.0540740633551
0.341573451633	0.074821853672	-0.123778462261
0.343247831298	0.0878643515642	-0.187125779235
0.344922210963	0.0988452977166	-0.242716870174
0.346596590628	0.107624689824	-0.289439025004
0.348270970293	0.114107312537	-0.326478406508
0.349945349958	0.118240207716	-0.353323609716
0.351619729623	0.120009532751	-0.369760897525
0.353294109288	0.119437027323	-0.375861840243
0.354968488952	0.116576316754	-0.371964226178
0.356642868617	0.111509280813	-0.35864721709
0.358317248282	0.104342707877	-0.336701797261
0.359991627947	0.0952054332703	-0.307097609153
0.361666007612	0.0842461257098	-0.270947283979
0.363340387277	0.0716318367662	-0.229469363903
0.365014766942	0.0575473662761	-0.18395087627
0.366689146606	0.0421954245202	-0.135710561493
0.368363526271	0.0257974936378	-0.0860636774453
0.370037905936	0.00859521087436	-0.0362892066907
0.371712285601	-0.0091479802655	0.0123998189286
0.373386665266	-0.0271452333348	0.0588822865734
0.375061044931	-0.0450851350852	0.102150808893
0.376735424596	-0.0626313921305	0.141329056801
0.378409804261	-0.0794238044444	0.175684453915
0.380084183925	-0.0950809556232	0.204636216395
0.38175856359	-0.109205014042	0.22775886738
0.383432943255	-0.121388969468	0.244781493426
0.38510732292	-0.131226522776	0.255583136491
0.386781702585	-0.138324700221	0.260184824235
0.38845608225	-0.142319079045	0.258738828603
0.390130461915	-0.142891292737	0.251515803434
0.39180484158	-0.139788241061	0.238890482003
0.393479221244	-0.132842176089	0.221326612177
0.395153600909	-0.121990589102	0.199361768617
0.396827980574	-0.107294606294	0.173592608423
0.398502360239	-0.0889544373475	0.144661031124
0.400176739904	-0.0673203338774	0.113241570576
0.401851119569	-0.0428975262254	0.0800301921891
0.403525499234	-0.0163437345188	0.0457345034732
0.405199878898	0.0115418952357	0.0110652207243
0.406874258563	0.0398391936258	-0.0232714170691
0.408548638228	0.0675369619925	-0.0565807202427
0.410223017893	0.0935721926101	-0.0881866224923
0.411897397558	0.116877449892	-0.117439302311
0.413571777223	0.136434606822	-0.14372386334
0.415246156888	0.151332398205	-0.166470482832
0.416920536553	0.160824586262	-0.185166266974
0.418594916217	0.164384998805	-0.199368819864
0.420269295882	0.161755361023	-0.208721253398
0.421943675547	0.152981760088	-0.212968058613
0.423618055212	0.138435807703	-0.211970952084
0.425292434877	0.118817131992	-0.205723534745
0.426966814542	0.0951347454782	-0.194363388518
0.428641194207	0.0686660792082	-0.178180120717
0.430315573872	0.0408939911029	-0.157617875732
0.431989953536	0.0134237627555	-0.133270988551
0.433664333201	-0.0121161230983	-0.105871764617
0.435338712866	-0.0341839223149	-0.0762698311823
0.437013092531	-0.0514382960973	-0.0454030966966
0.438687472196	-0.0628476035565	-0.014261041178
0.440361851861	-0.067786127408	0.016158208806
0.442036231526	-0.0661085833784	0.0448948543184
0.44371061119	-0.058195015666	0.071075656549
0.445384990855	-0.0449596618075	0.0939601711837
0.44705937052	-0.0278195399589	0.112981486989
0.448733750185	-0.00862126442271	0.127778006342
0.45040812985	0.0104722370561	0.138213149459
0.452082509515	0.0271300712398	0.144380522826
0.45375688918	0.0390284721721	0.146593041986
0.455431268845	0.0440413880412	0.145355684657
0.457105648509	0.0404330210057	0.141322888234
0.458780028174	0.0270373829892	0.135242988423
0.460454407839	0.00340962956749	0.127893399666
0.462128787504	-0.0300651489565	0.120011335084
0.463803167169	-0.0721178383501	0.112225633176
0.465477546834	-0.120604745091	0.104995600006
0.467151926499	-0.17258510226	0.0985626205749
0.468826306164	-0.224466169243	0.0929196144676
0.470500685828	-0.272210140294	0.0878022289725
0.472175065493	-0.311591857146	0.0827040472319
0.473849445158	-0.338491636812	0.0769161547487
0.475523824823	-0.349203795369	0.0695893078063
0.477198204488	-0.340739030899	0.0598148604015
0.478872584153	-0.311097989563	0.0467187202716
0.480546963818	-0.259494222785	0.0295610999368
0.482221343482	-0.186507357136	0.00783386054676
0.483895723147	-0.0941515048495	-0.0186530712324
0.485570102812	0.0141505315225	-0.0497043396326
0.487244482477	0.133690251582	-0.0846978724814
0.488918862142	0.258689729176	-0.122574944455
0.490593241807	0.382600407943	-0.161864595331
0.492267621472	0.498467424374	-0.200742790896
0.493942001137	0.599337311285	-0.237123959947
0.495616380801	0.67868328227	-0.268779875691
0.497290760466	0.730820440718	-0.293478497576
0.498965140131	0.751283353501	-0.309133550896
0.500639519796	0.737140486765	-0.313954456428
0.502313899461	0.687223875227	-0.30658583592
0.503988279126	0.602257804489	-0.286226252199
0.505662658791	0.484876830608	-0.252717068357
0.507337038456	0.339530663711	-0.206594237485
0.50901141812	0.172280781335	-0.14909831495
0.510685797785	-0.00949940942709	-0.082140828407
0.51236017745	-0.197502955938	-0.00822812926893
0.514034557115	-0.382923572518	0.0696532421205
0.51570893678	-0.556919725723	0.148183031707
0.517383316445	-0.711081151379	0.223876809799
0.51905769611	-0.837870676231	0.293268290592
0.520732075774	-0.931016248232	0.353093369697
0.522406455439	-0.985831629762	0.40046479327
0.524080835104	-0.999448983955	0.433027088349
0.525755214769	-0.970952223754	0.449082765966
0.527429594434	-0.901406095168	0.447682738308
0.529103974099	-0.793782121058	0.428676217129
0.530778353764	-0.652788350645	0.392717910391
0.532452733429	-0.484614999237	0.341232928846
0.534127113093	-0.296612244407	0.276342281884
0.535801492758	-0.0969194701912	0.20075402883
0.537475872423	0.10593299246	0.117626932972
0.539150252088	0.303428117606	0.0304147508351
0.540824631753	0.487451690205	-0.0572999725887
0.542499011418	0.650648207167	-0.141973552621
0.544173391083	0.786727113586	-0.220261562117
0.545847770748	0.890706803862	-0.289164112377
0.547522150412	0.959087746767	-0.346149377234
0.549196530077	0.989950206503	-0.389250236564
0.550870909742	0.982976084385	-0.417130614298
0.552545289407	0.939398179828	-0.429119854824
0.554219669072	0.861883483746	-0.425215214053
0.555894048737	0.754359835119	-0.406054142897
0.557568428402	0.621797302808	-0.37285943333
0.559242808066	0.469956957085	-0.32736142217
0.560917187731	0.305120270671	-0.271702267708
0.562591567396	0.13381227731	-0.208327812813
0.564265947061	-0.0374691109128	-0.139872728458
0.565940326726	-0.202506472617	-0.0690445139702
0.567614706391	-0.355589431797	0.00148845046385
0.569289086056	-0.491706839483	0.0692002024987
0.570963465721	-0.606699132564	0.131798016083
0.572637845385	-0.69736757912	0.187297784548
0.57431222505	-0.761539222797	0.234081945971
0.575986604715	-0.798088293947	0.270938866306
0.57766098438	-0.806916587778	0.297083492893
0.579335364045	-0.788896764194	0.312159909001
0.58100974371	-0.745783664992	0.316227129242
0.582684123375	-0.680099555716	0.309730054985
0.58435850304	-0.594999683762	0.293457946467
0.586032882704	-0.494124718602	0.268493060178
0.587707262369	-0.381446533828	0.236152250124
0.589381642034	-0.261113442194	0.197924349267
0.591056021699	-0.137300447487	0.155406047483
0.592730401364	-0.0140693764876	0.110238782691
0.594404781029	0.104757054239	0.0640488825133
0.596079160694	0.215704055255	0.0183928558702
0.597753540358	0.31573418163	-0.0252906417864
0.599427920023	0.402315955184	-0.0657210397057
0.601102299688	0.473471141831	-0.101807543469
0.602776679353	0.527800912338	-0.132671929252
0.604451059018	0.564491803977	-0.15766243271
0.606125438683	0.583302985472	-0.176359035731
0.607799818348	0.58453679852	-0.188570719784
0.609474198013	0.568994901805	-0.194325470279
0.611148577677	0.537922579443	-0.193853980302
0.612822957342	0.492943901261	-0.187568115242
0.614497337007	0.435990447439	-0.176035264573
0.616171716672	0.369226247583	-0.159949727577
0.617846096337	0.294971448329	-0.14010226122
0.619520476002	0.215627028298	-0.117348866626
0.621194855667	0.133602638155	-0.0925798117215
0.622869235332	0.0512493686338	-0.0666897879855
0.624543614996	-0.0292010484209	-0.040549984694
0.626217994661	-0.105689412352	-0.0149827403653
0.627892374326	-0.176373721858	0.0092606967696
0.629566753991	-0.239664774405	0.0315188949999
0.631241133656	-0.294252433754	0.0512351713665
0.632915513321	-0.339122585212	0.0679685658585
0.634589892986	-0.373565055204	0.0814008012161
0.63626427265	-0.397172997459	0.0913392694223
0.637938652315	-0.409834438429	0.097716172673
0.63961303198	-0.411716827398	0.100584022814
0.641287411645	-0.403245552034	0.100107769677
0.64296179131	-0.385077459242	0.0965538865731
0.644636170975	-0.358070466886	0.0902767917715
0.64631055064	-0.323250366993	0.0817030293601
0.647984930305	-0.281775908423	0.0713136725892
0.649659309969	-0.234903208627	0.0596254483428
0.651333689634	-0.183950481618	0.0471711129559
0.653008069299	-0.130263983623	0.0344796368007
0.654682448964	-0.0751859702298	0.0220567768536
0.656356828629	-0.0200253311825	0.0103666310919
0.658031208294	0.0339685755444	-0.000185226283659
0.659705587959	0.085628525319	-0.00926643705307
0.661379967624	0.133888261287	-0.0166298098236
0.663054347288	0.177797519478	-0.0221220029485
0.664728726953	0.21653335337	-0.0256884778952
0.666403106618	0.249408000407	-0.0273743522044
0.668077486283	0.275873642647	-0.0273208999842
0.669751865948	0.295524493972	-0.0257575956653
0.671426245613	0.308096693357	-0.0229897725686
0.673100625278	0.313466495225	-0.0193821685144
0.674775004942	0.311647223181	-0.0153388503106
0.676449384607	0.302785392865	-0.0112802386701
0.678123764272	0.287156315264	-0.00761818313021
0.679798143937	0.265159367169	-0.00473024839585
0.681472523602	0.237312966508	-0.00293455254388
0.683146903267	0.204249125401	-0.00246662578932
0.684821282932	0.166707284859	-0.00345981797924
0.686495662597	0.125526976658	-0.00593075696133
0.688170042261	0.0816387276459	-0.00977123477715
0.689844421926	0.0360525381794	-0.0147476653136
0.691518801591	-0.0101567519424	-0.0205089131425
0.693193181256	-0.0558678339854	-0.0266028443314
0.694867560921	-0.0999355065856	-0.03250141074
0.696541940586	-0.141217676965	-0.0376334742565
0.698216320251	-0.178606665416	-0.0414239407698
0.699890699916	-0.2110642751	-0.0433371483109
0.70156507958	-0.237659622372	-0.0429218892888
0.703239459245	-0.257608239452	-0.0398549963408
0.70491383891	-0.270310502898	-0.0339801380052
0.706588218575	-0.275387054175	-0.0253384022629
0.70826259824	-0.272708610328	-0.0141874309904
0.709936977905	-0.262417458772	-0.00100632939738
0.71161135757	-0.244938029214	0.0135156852978
0.713285737234	-0.220974265353	0.0285079325246
0.714960116899	-0.191492091667	0.0429640381199
0.716634496564	-0.157686079356	0.0558032929908
0.718308876229	-0.120930431308	0.0659446622923
0.719983255894	-0.082715576333	0.0723891607581
0.721657635559	-0.0445729120959	0.0743051443881
0.723332015224	-0.00799146886503	0.0711102045339
0.725006394889	0.0256686277175	0.0625428977022
0.726680774553	0.0552601528229	0.0487175912594
0.728355154218	0.0799239856565	0.0301563069722
0.730029533883	0.0991492071014	0.00779261419957
0.731703913548	0.112812235078	-0.0170556725054
0.733378293213	0.121190141955	-0.0427460864647
0.735052672878	0.124944826118	-0.0674020248829
0.736727052543	0.125076694644	-0.0890302208787
0.738401432208	0.12284883523	-0.105658675435
0.740075811872	0.119685147461	-0.115486314593
0.741750191537	0.117048365835	-0.117033905453
0.743424571202	0.116306120851	-0.109284731274
0.745098950867	0.118594930704	-0.0918033385669
0.746773330532	0.124693096218	-0.0648214137468
0.748447710197	0.134913728155	-0.0292815354323
0.750122089862	0.149028470771	0.0131678881678
0.751796469527	0.166230874322	0.0602298990843
0.753470849191	0.185145869826	0.109068098463
0.755145228856	0.203888553512	0.156463183983
0.756819608521	0.220171714788	0.199008597612
0.758493988186	0.231457522624	0.233333468869
0.760168367851	0.235144845243	0.25633827141
0.761842747516	0.228780157212	0.265426834266
0.763517127181	0.210277212229	0.25871775376
0.765191506845	0.178128910446	0.235218937346
0.76686588651	0.131594274354	0.1949509728
0.768540266175	0.0708442800434	0.139008146179
0.77021464584	-0.0029475270934	0.069550021038
0.771889025505	-0.0875802850453	-0.0102787529487
0.77356340517	-0.179873159623	-0.0964976649235
0.775237784835	-0.275785881963	-0.184500867365
0.7769121645	-0.370608153859	-0.269316726541
0.778586544164	-0.459208289614	-0.345900396006
0.780260923829	-0.536326703097	-0.409440783134
0.781935303494	-0.596896024048	-0.455661960083
0.783609683159	-0.636367057828	-0.481099164503
0.785284062824	-0.651018709362	-0.483331036407
0.786958442489	-0.638230480303	-0.461152531845
0.788632822154	-0.596698198564	-0.414676830223
0.790307201819	-0.526577108762	-0.345359219739
0.791981581483	-0.42954108815	-0.255941059743
0.793655961148	-0.308752214272	-0.150317108806
0.795330340813	-0.16874079705	-0.0333344055145
0.797004720478	-0.0152018711944	0.0894648405366
0.798679100143	0.145280396372	0.212140527187
0.800353479808	0.305564276949	0.328674036554
0.802027859473	0.458318389518	0.433290618465
0.803702239137	0.596404124258	0.520765923325
0.805376618802	0.713250035722	0.586699253842
0.807050998467	0.803196420547	0.627738580118
0.808725378132	0.861790438614	0.641745677963
0.810399757797	0.88601547693	0.627893651295
0.812074137462	0.874442727482	0.586693306717
0.813748517127	0.82729783629	0.519949078045
0.815422896792	0.746440636026	0.430649183492
0.817097276456	0.635261053987	0.322798204202
0.818771656121	0.498498970162	0.201203112845
0.820446035786	0.341999811844	0.0712258236392
