Time (fs)	Ex (arb. u.)	Ey (arb. u.)
0.503988279126	0.0738040862894	0.1664718046
0.509848607953	0.0721086776547	0.132695471092
0.51570893678	0.0695231232169	0.0940861305832
0.521569265607	0.0655186768542	0.0523322699423
0.527429594434	0.059557056016	0.00938990511672
0.533289923261	0.0511519854561	-0.0326196497269
0.539150252088	0.0399327321256	-0.0715355774586
0.545010580915	0.0257040507615	-0.105299878344
0.550870909742	0.0084967352198	-0.132106819571
0.556731238569	-0.0113967488812	-0.15054828637
0.562591567396	-0.0334062630851	-0.159742746208
0.568451896223	-0.0566910200888	-0.1594354509
0.57431222505	-0.0801712745138	-0.150058523886
0.580172553877	-0.102584263229	-0.132741754105
0.586032882704	-0.122561779	-0.109268178571
0.591893211531	-0.138724617834	-0.0819727025808
0.597753540358	-0.14978725911	-0.0535867891858
0.603613869186	-0.154664715909	-0.0270372644815
0.609474198013	-0.152572697911	-0.00521208493538
0.61533452684	-0.143112179045	0.00928997586228
0.621194855667	-0.126330209925	0.0144057937205
0.627055184494	-0.102750340716	0.00882914250771
0.632915513321	-0.0733682263204	-0.0078142924263
0.638775842148	-0.0396107054721	-0.034856881199
0.644636170975	-0.00325965308347	-0.0705586054621
0.650496499802	0.0336550615491	-0.112165049761
0.656356828629	0.0689863956988	-0.156055696922
0.662217157456	0.100615349448	-0.197976759809
0.668077486283	0.126599660935	-0.233345141135
0.67393781511	0.14531442846	-0.257603163287
0.679798143937	0.155573447974	-0.26659812064
0.685658472764	0.156721361912	-0.256957054873
0.691518801591	0.148688889773	-0.226425863944
0.697379130418	0.132006270534	-0.174143151998
0.703239459245	0.107773345772	-0.10082310602
0.709099788072	0.0775881624602	-0.00882790435102
0.714960116899	0.0434392746967	0.0978817392803
0.720820445726	0.00756978806492	0.213919958455
0.726680774553	-0.0276766247683	0.332765305759
0.73254110338	-0.0600161822347	0.447149335625
0.738401432208	-0.0873800017745	0.549518746672
0.744261761035	-0.108052332997	0.632539237651
0.750122089862	-0.120782185281	0.689605270919
0.755982418689	-0.12486075625	0.715318757721
0.761842747516	-0.120159838556	0.705901388356
0.767703076343	-0.107129439964	0.659509789932
0.77356340517	-0.0867559348431	0.576429537048
0.779423733997	-0.0604849237381	0.459132704192
0.785284062824	-0.0301153931989	0.312193429644
0.791144391651	0.00232642856425	0.142066078353
0.797004720478	0.0347240419572	-0.0432597438598
0.802865049305	0.0650086747362	-0.234704591705
0.808725378132	0.0912889339076	-0.422615581997
0.814585706959	0.111963819	-0.597319946909
0.820446035786	0.12581242271	-0.749679964679
0.826306364613	0.132055637311	-0.871614128186
0.83216669344	0.130387375694	-0.956552461618
0.838027022267	0.120975026834	-0.999799039094
0.843887351094	0.104430932718	-0.998781534896
0.849747679921	0.081758458546	-0.953175485708
0.855608008748	0.0542776256798	-0.864899267602
0.861468337575	0.0235362217772	-0.737983984003
0.867328666403	-0.00878723029365	-0.578329973763
0.87318899523	-0.0409822609356	-0.393368014897
0.879049324057	-0.0714010326681	-0.19164816763
0.884909652884	-0.0985435066066	0.0176176514179
0.890769981711	-0.121129017073	0.225031929739
0.896630310538	-0.138151260232	0.421479640043
0.902490639365	-0.148914953653	0.598563151579
0.908350968192	-0.15305365119	0.748982357285
0.914211297019	-0.15052932537	0.866842812255
0.920071625846	-0.141615298096	0.947879766405
0.925931954673	-0.126864868861	0.989591372401
0.9317922835	-0.107068535271	0.99127970753
0.937652612327	-0.0832030184475	0.954003251049
0.943512941154	-0.0563754055068	0.880448845916
0.949373269981	-0.0277656248368	0.774734749362
0.955233598808	0.00142979176609	0.642159014121
0.961093927635	0.0300500963545	0.488909084223
0.966954256462	0.0570167773682	0.32174914425
0.972814585289	0.0813725231717	0.147701493538
0.978674914116	0.102311685663	-0.0262628625803
0.984535242943	0.119201757626	-0.193510959792
0.99039557177	0.131595856942	-0.348000766317
0.996255900597	0.139236625307	-0.484491606838
1.00211622942	0.142052286027	-0.59870624924
1.00797655825	0.140145858866	-0.687441530025
1.01383688708	0.133778699832	-0.748627004452
1.01969721591	0.123349625348	-0.781333468539
1.02555754473	0.109370902016	-0.785735225663
1.03141787356	0.0924423461078	-0.763031602452
1.03727820239	0.0732246927884	-0.715334426228
1.04313853121	0.0524132757596	-0.645528953771
1.04899886004	0.030712914482	-0.557116104888
1.05485918887	0.00881474832354	-0.45404383812
1.06071951769	-0.0126244065536	-0.340535157667
1.06657984652	-0.0329997636853	-0.220919616881
1.07244017535	-0.0517730764844	-0.0994743464903
1.07830050418	-0.0684838338553	0.0197203519093
1.084160833	-0.0827571478042	0.13290688333
1.09002116183	-0.0943084451195	0.236754853456
1.09588149066	-0.102945160029	0.32844241674
1.10174181948	-0.108565688871	0.405713748132
1.10760214831	-0.111155912443	0.466912846831
1.11346247714	-0.110783619147	0.51099470109
1.11932280597	-0.107591175232	0.537515529192
1.12518313479	-0.101786790641	0.546604354768
1.13104346362	-0.0936347231284	0.538918572974
1.13690379245	-0.083444751999	0.51558642223
1.14276412127	-0.0715612375582	0.478139403047
1.1486244501	-0.0583520642669	0.428437694054
1.15448477893	-0.0441977448148	0.368591520702
1.16034510775	-0.0294809389707	0.300881251446
1.16620543658	-0.0145766150764	0.227678746969
1.17206576541	0.0001569463591	0.151372187878
1.17792609424	0.0143861377899	0.0742962719722
1.18378642306	0.0278088606466	-0.00133068055779
1.18964675189	0.0401601058853	-0.0734615330714
1.19550708072	0.0512162036175	-0.140266218593
1.20136740954	0.0607976963323	-0.200168207747
1.20722773837	0.0687708194147	-0.251871367648
1.2130880672	0.0750476017556	-0.294377297458
1.21894839603	0.0795846291842	-0.326993468266
1.22480872485	0.0823805451624	-0.3493327001
1.23066905368	0.0834723972295	-0.361304676779
1.23652938251	0.0829309739527	-0.363100330642
1.24238971133	0.0808553146939	-0.355170025651
1.24825004016	0.077366611554	-0.338196531571
1.25411036899	0.0726017569923	-0.31306381693
1.25997069781	0.0667068190487	-0.280822697865
1.26583102664	0.0598307460151	-0.242654367308
1.27169135547	0.0521196112672	-0.199832798202
1.2775516843	0.0437117046811	-0.153686968811
1.28341201312	0.0347337580183	-0.105563801091
1.28927234195	0.0252985567322	-0.0567926369951
1.29513267078	0.0155041390591	-0.00865200456905
1.3009929996	0.00543471459301	0.0376606530038
1.30685332843	-0.00483665117282	0.0810556960502
1.31271365726	-0.015243641897	0.120573954397
1.31857398608	-0.0257207571474	0.155404935143
1.32443431491	-0.0361961406413	0.1849002681
1.33029464374	-0.0465836030989	0.20858219385
1.33615497257	-0.0567744041537	0.226147016568
1.34201530139	-0.0666294770011	0.237463569339
1.34787563022	-0.0759728746416	0.242566872583
1.35373595905	-0.0845872744645	0.241647304735
1.35959628787	-0.0922123851754	0.235035744854
1.3654566167	-0.0985470444982	0.223185284914
1.37131694553	-0.103255668109	0.206650238629
1.37717727436	-0.105979504392	0.18606328644
1.38303760318	-0.106352865735	0.162111684068
1.38889793201	-0.104024151557	0.13551351575
1.39475826084	-0.0986810647817	0.106994984181
1.40061858966	-0.0900789732619	0.0772696894814
1.40647891849	-0.0780709095819	0.0470207535763
1.41233924732	-0.062637272348	0.0168864919439
1.41819957614	-0.0439129304989	-0.012549876484
1.42405990497	-0.0222091834704	-0.040766251395
1.4299202338	0.00197206172612	-0.0673034733594
1.43578056263	0.0279344302431	-0.0917633316168
1.44164089145	0.054795736216	-0.113803455602
1.44750122028	0.0815107776195	-0.133130070042
1.45336154911	0.106909066114	-0.149489814835
1.45922187793	0.129747244069	-0.162661963812
1.46508220676	0.14877472486	-0.1724523962
1.47094253559	0.162809780694	-0.178690563409
1.47680286442	0.170821994054	-0.181230443913
1.48266319324	0.172015802767	-0.179956095196
1.48852352207	0.165908933416	-0.174791913392
1.4943838509	0.152398961847	-0.165717132228
1.50024417972	0.131811177848	-0.152783481375
1.50610450855	0.104921451254	-0.136134339145
1.51196483738	0.0729489454397	-0.116023221468
1.5178251662	0.0375152954455	-0.0928291143738
1.52368549503	0.000569195309901	-0.067066040506
1.52954582386	-0.0357219076969	-0.0393843969936
1.53540615269	-0.0691083262632	-0.0105620364065
1.54126648151	-0.0974151868661	0.0185162189173
1.54712681034	-0.118709659251	0.0468909708084
1.55298713917	-0.131465868844	0.0735717383511
1.55884746799	-0.134713714136	0.0975895037936
1.56470779682	-0.128157595221	0.118055060375
1.57056812565	-0.112252066209	0.134218871038
1.57642845447	-0.0882237071393	0.145527402895
1.5822887833	-0.0580320073465	0.151670570805
1.58814911213	-0.0242665742127	0.15261509112
1.59400944096	0.0100167795723	0.148619256884
1.59986976978	0.0415129722556	0.140225888523
1.60573009861	0.0669241485813	0.128231921033
1.61159042744	0.0832375988155	0.11363513428
1.61745075626	0.0880034868335	0.0975607423005
1.62331108509	0.079588916917	0.0811727201413
1.62917141392	0.0573849467106	0.065576637174
1.63503174275	0.021945316974	0.0517221656947
1.64089207157	-0.0249601184048	0.0403141572381
1.6467524004	-0.0803882498803	0.0317410954061
1.65261272923	-0.140365422565	0.0260287859801
1.65847305805	-0.200125330681	0.0228253607406
1.66433338688	-0.254429075706	0.0214211673714
1.67019371571	-0.297946643212	0.0208040925932
1.67605404453	-0.325672681941	0.019747583882
1.68191437336	-0.333345086361	0.0169254033957
1.68777470219	-0.317832972192	0.0110442848503
1.69363503102	-0.277461467724	0.000983468387369
1.69949535984	-0.212244357036	-0.0140711940109
1.70535568867	-0.124001788793	-0.0345110729895
1.7112160175	-0.0163485539401	-0.0602181035407
1.71707634632	0.105451814905	-0.0905171553983
1.72293667515	0.234761455226	-0.124173956366
1.72879700398	0.363955218327	-0.159441392041
1.73465733281	0.484895316364	-0.194152921791
1.74051766163	0.589461232933	-0.225857747962
1.74637799046	0.670097705641	-0.251988624359
1.75223831929	0.720341607436	-0.27005013392
1.75809864811	0.735289607705	-0.277813185693
1.76395897694	0.711972492839	-0.273500570996
1.76981930577	0.649608632146	-0.255948765293
1.77567963459	0.549717740299	-0.22473273994
1.78153996342	0.416086104055	-0.180243221355
1.78740029225	0.254585006599	-0.123709374226
1.79326062108	0.0728543717372	-0.0571639880443
1.7991209499	-0.120127116523	0.0166474324303
1.80498127873	-0.314556654681	0.0944080879376
1.81084160756	-0.500372680541	0.17241251964
1.81670193638	-0.667834184875	0.246778206162
1.82256226521	-0.808077126231	0.313671886337
1.82842259404	-0.913613570029	0.369535483531
1.83428292286	-0.97874389903	0.411296748679
1.84014325169	-0.999858982675	0.436551050348
1.84600358052	-0.97561699629	0.44370298027
1.85186390935	-0.906988037812	0.43205940594
1.85772423817	-0.797168181262	0.401869037103
1.863584567	-0.651372553003	0.354307208203
1.86944489583	-0.476523918262	0.291408143196
1.87530522465	-0.280858730158	0.215950214375
1.88116555348	-0.0734763591222	0.131302425171
1.88702588231	0.1361408382	0.041242383018
1.89288621114	0.338608826341	-0.0502427119589
1.89874653996	0.525098351595	-0.139160085803
1.90460686879	0.687743349452	-0.221708771041
1.91046719762	0.819982258927	-0.294459735047
1.91632752644	0.916818167307	-0.354509757307
1.92218785527	0.974989098464	-0.399602102685
1.9280481841	0.993045212099	-0.428209351397
1.93390851292	0.97133487024	-0.439576160222
1.93976884175	0.911906171629	-0.433722085989
1.94562917058	0.818334437836	-0.411406763284
1.95148949941	0.695489109573	-0.374061581612
1.95734982823	0.549255501054	-0.323693471907
1.96321015706	0.386227853966	-0.262767439757
1.96907048589	0.21339017916	-0.194075056575
1.97493081471	0.0378005706611	-0.120596252737
1.98079114354	-0.133706843641	-0.0453614860272
1.98665147237	-0.294790229601	0.0286792583999
1.99251180119	-0.439829036967	0.0987750734447
1.99837213002	-0.564106725455	0.162475868602
2.00423245885	-0.66394304788	0.217713977893
2.01009278768	-0.736774373512	0.262863622708
2.0159531165	-0.78118298861	0.296777435142
2.02181344533	-0.796878460862	0.318800378808
2.02767377416	-0.784635931607	0.328762399472
2.03353410298	-0.746197564072	0.32695196327
2.03939443181	-0.684144312922	0.314073275117
2.04525476064	-0.601745699453	0.291190406036
2.05111508947	-0.502795405938	0.259661798947
2.05697541829	-0.39144028567	0.221068680324
2.06283574712	-0.272009875723	0.177140800276
2.06869607595	-0.14885275721	0.129682681077
2.07455640477	-0.026185194531	0.080503202407
2.0804167336	0.0920435390081	0.0313509202072
2.08627706243	0.202265820408	-0.0161429657536
2.09213739125	0.301388074845	-0.060512585169
2.09799772008	0.386859709155	-0.100495403764
2.10385804891	0.456718345676	-0.135059835387
2.10971837774	0.509611985709	-0.163422471402
2.11557870656	0.544799472824	-0.185055325319
2.12143903539	0.562131231157	-0.199683814467
2.12729936422	0.562012717149	-0.207276457071
2.13315969304	0.545353345871	-0.208027450947
2.13902002187	0.513503841668	-0.202333420935
2.1448803507	0.468185028672	-0.190765680324
2.15074067953	0.411411034129	-0.174039353312
2.15660100835	0.345409743412	-0.152980658476
2.16246133718	0.272543137492	-0.128493565937
2.16832166601	0.195229879038	-0.101526922102
2.17418199483	0.11587220863	-0.0730429943768
2.18004232366	0.0367888825593	-0.0439882323994
2.18590265249	-0.039844458538	-0.0152668798075
2.19176298131	-0.112046444343	0.0122820917106
2.19762331014	-0.178071941877	0.0379044103906
2.20348363897	-0.236444442517	0.0609461235392
2.2093439678	-0.285978772105	0.0808653666445
2.21520429662	-0.325794294245	0.0972403527904
2.22106462545	-0.355319011415	0.109773744299
2.22692495428	-0.374285167829	0.118293639367
2.2327852831	-0.382717121208	0.122751456769
2.23864561193	-0.380912378001	0.123217032633
2.24450594076	-0.369416780108	0.119871256895
2.25036626958	-0.348994893585	0.112996576013
2.25622659841	-0.320596684596	0.102965676137
2.26208692724	-0.285321578582	0.0902286409003
2.26794725607	-0.244380988185	0.075298854115
2.27380758489	-0.199060366512	0.0587378938886
2.27966791372	-0.150681796019	0.0411396446763
2.28552824255	-0.100568060642	0.0231138410372
2.29138857137	-0.0500090697657	0.00526925418949
2.2972489002	-0.000231407275926	-0.0118032579538
2.30310922903	0.0476283325345	-0.0275475935535
2.30896955786	0.0925458874043	-0.0414588622037
2.31482988668	0.133626954217	-0.0530991241124
2.32069021551	0.170119860391	-0.0621120267187
2.32655054434	0.201423201848	-0.0682358904139
2.33241087316	0.227088538558	-0.0713147351836
2.33827120199	0.246818409409	-0.0713066902266
2.34413153082	0.260460095948	-0.0682891981361
2.34999185964	0.267995723789	-0.0624604239265
2.35585218847	0.269529434085	-0.0541363168707
2.3617125173	0.265272477389	-0.0437428586007
2.36757284613	0.25552716911	-0.0318031710516
2.37343317495	0.240670689748	-0.0189193562667
2.37929350378	0.22113970424	-0.00574919631672
2.38515383261	0.197416704728	0.00702185010387
2.39101416143	0.170018843867	0.0187125690917
2.39687449026	0.139489820046	0.0286806744078
2.40273481909	0.106395105535	0.0363587256729
2.40859514792	0.0713204844026	0.0412894174823
2.41445547674	0.0348735069091	0.0431581018715
2.42031580557	-0.00231290407165	0.0418202342989
2.4261761344	-0.0395758104056	0.0373213969621
2.43203646322	-0.076217992035	0.0299076836218
2.43789679205	-0.111505673268	0.020024549968
2.44375712088	-0.144669936838	0.00830275378494
2.4496174497	-0.174913441431	-0.00446927490991
2.45547777853	-0.201423801266	-0.0173864050254
2.46133810736	-0.223394543008	-0.0294798700329
2.46719843619	-0.240053933839	-0.0397800966929
2.47305876501	-0.250701201685	-0.0473858954071
2.47891909384	-0.254748791094	-0.0515356496353
2.48477942267	-0.25176838216	-0.0516753911485
2.49063975149	-0.241537527976	-0.0475182074562
2.49650008032	-0.224083032525	-0.0390893856843
2.50236040915	-0.19971669415	-0.0267521192985
2.50822073797	-0.169058872462	-0.011209523546
2.5140810668	-0.133045575341	0.0065198857829
2.51994139563	-0.0929154561552	0.0251542530518
2.52580172446	-0.050174270306	0.043226813719
2.53166205328	-0.00653592929379	0.0591871759261
2.53752238211	0.036158776051	0.0715195936877
2.54338271094	0.0760425688876	0.0788702585827
2.54924303976	0.111335808714	0.0801739699838
2.55510336859	0.140466960692	0.0747695321816
2.56096369742	0.162190436564	0.0624930419076
2.56682402625	0.175691853516	0.0437389852273
2.57268435507	0.180670575184	0.019480795377
2.5785446839	0.177390137725	-0.00875481980981
2.58440501273	0.166688870892	-0.0389620378259
2.59026534155	0.149945654821	-0.0687768512476
2.59612567038	0.128999164335	-0.0956388485852
2.60198599921	0.106022904774	-0.116983865147
2.60784632803	0.0833625159885	-0.130453986026
2.61370665686	0.063345835709	-0.134108743059
2.61956698569	0.0480796675999	-0.126619921167
2.62542731452	0.0392497052217	-0.107432404223
2.63128764334	0.0379412896056	-0.0768750547437
2.63714797217	0.044498389896	-0.0362087046109
2.643008301	0.0584362868714	0.0123972404568
2.64886862982	0.0784199521509	0.0659626252831
2.65472895865	0.102315253998	0.120865786308
2.66058928748	0.127314236312	0.173075051137
2.66644961631	0.15012928824	0.218427644794
2.67230994513	0.167244610673	0.252936437648
2.67817027396	0.175207589753	0.273101697694
2.68403060279	0.17093807943	0.27620352536
2.68989093161	0.152030666189	0.260551148773
2.69575126044	0.117024095259	0.225667764331
2.70161158927	0.0656133592244	0.172393964559
2.70747191809	-0.0012165336587	0.102898676579
2.71333224692	-0.0811506086346	0.0205934724181
2.71919257575	-0.170606249622	-0.0700464608221
2.72505290458	-0.264898237279	-0.163744104193
2.7309132334	-0.358498606364	-0.254747995936
2.73677356223	-0.445375504867	-0.337202803756
2.74263389106	-0.519388410461	-0.405537105583
2.74849421988	-0.574711930875	-0.454840862915
2.75435454871	-0.606257439667	-0.481205656295
2.76021487754	-0.610061246837	-0.482003400408
2.76607520636	-0.583609934027	-0.4560837322
2.77193553519	-0.526077742528	-0.403876188551
2.77779586402	-0.438457137804	-0.327390170691
2.78365619285	-0.323571373167	-0.230112976731
2.78951652167	-0.185966409322	-0.116813302523
2.7953768505	-0.0316882306072	0.00673597123635
2.80123717933	0.132040249406	0.134096631097
2.80709750815	0.297221501592	0.258542801482
2.81295783698	0.455538387028	0.373452594505
2.81881816581	0.598832014824	0.472688681909
2.82467849464	0.719571509169	0.55094424828
2.83053882346	0.811285856791	0.604033841263
2.83639915229	0.8689311716	0.629112934509
2.84225948112	0.889171616023	0.624815192438
2.84811980994	0.870558428377	0.591302063157
2.85398013877	0.81359851793	0.530225011744
2.8598404676	0.720711369512	0.444606051803
2.86570079642	0.59608002641	0.338646902564
2.87156112525	0.445408225072	0.217480828894
2.87742145408	0.27560095301	0.086883835612
2.88328178291	0.0943895136755	-0.0470367007649
2.88914211173	-0.0900755518628	-0.178157667366
2.89500244056	-0.269639658035	-0.300642726515
2.90086276939	-0.436544292728	-0.409216184911
2.90672309821	-0.583791058612	-0.49939534365
2.91258342704	-0.705451932341	-0.567671634234
2.91844375587	-0.796912145714	-0.611634326857
2.92430408469	-0.855036695823	-0.630034141762
2.93016441352	-0.878256265458	-0.62278748707
2.93602474235	-0.866572978159	-0.590925103968
2.94188507118	-0.821490659521	-0.536491479382
2.9477454	-0.74587791364	-0.462403388757
2.95360572883	-0.643775196303	-0.372277303943
2.95946605766	-0.520159082268	-0.27023613326
2.96532638648	-0.380678052062	-0.160705880439
2.97118671531	-0.231374389467	-0.0482123759985
2.97704704414	-0.0784062578181	0.0628126677504
2.98290737297	0.0722171775394	0.16820829886
2.98876770179	0.214876454401	0.264237219867
2.99462803062	0.344549350065	0.347710176323
3.00048835945	0.456978615946	0.416078820481
3.00634868827	0.548795725701	0.467495727201
3.0122090171	0.61759885061	0.500841815163
3.01806934593	0.661985509727	0.51572281998
3.02392967475	0.681542320199	0.512437632318
3.02979000358	0.676795928631	0.491922226235
3.03565033241	0.649130496119	0.45567354971
3.04151066124	0.600678019476	0.405658134094
3.04737099006	0.534188302246	0.344210317636
3.05323131889	0.452885562135	0.273924895282
3.05909164772	0.360318511724	0.197548734658
